Theta,Power,Theta,Power,Theta,Power,Theta,Power,Theta,Power
theta,W,theta,W,theta,W,theta,W,theta,W
,1960mA,,1960mA,,1960mA,,1960mA,,1960mA
0.5277,0.684,0.537,0.683,0.6553,0.682,0.7986,0.682,0.4136,0.685
1.2737,0.683,1.255,0.681,1.396,0.68,1.1763,0.681,1.4727,0.684
2.2994,0.681,2.4046,0.68,2.474,0.679,2.703,0.679,1.998,0.682
3.645,0.677,4.4685,0.674,3.8367,0.676,3.5163,0.676,4.038,0.68
5.3583,0.672,6.122,0.668,6.369,0.667,6.1636,0.67,5.744,0.671
7.2743,0.663,7.842,0.664,8.242,0.664,7.9244,0.663,7.51,0.667
9.2043,0.654,10.536,0.655,9.9623,0.65,9.8555,0.654,9.316,0.658
12.1424,0.643,12.2856,0.645,11.7683,0.644,11.9267,0.643,11.8913,0.648
13.172,0.637,14.309,0.632,14.3506,0.626,13.9344,0.631,13.643,0.636
15.711,0.623,16.151,0.619,16.166,0.618,16.162,0.617,15.47,0.623
17.389,0.609,17.9226,0.604,18.009,0.604,17.9893,0.602,18.111,0.608
19.1614,0.593,19.6276,0.588,19.8417,0.588,19.919,0.586,19.8725,0.592
21.7723,0.575,22.3057,0.57,21.69,0.561,21.9307,0.569,21.6395,0.574
22.677,0.557,24.148,0.551,23.559,0.552,23.62,0.55,23.3023,0.556
24.685,0.538,25.984,0.532,26.349,0.522,25.278,0.531,25.8663,0.537
27.418,0.518,27.8745,0.512,28.1797,0.512,28.0177,0.51,26.7665,0.516
29.1903,0.497,30.448,0.491,30.0176,0.48,30.039,0.489,29.6404,0.495
30.8943,0.475,31.3543,0.469,31.764,0.469,31.8716,0.467,31.4553,0.474
32.8244,0.453,34.2204,0.446,34.345,0.435,33.679,0.444,33.243,0.451
35.511,0.43,35.967,0.423,36.013,0.424,35.5566,0.421,34.9956,0.428
37.519,0.406,37.651,0.399,37.846,0.388,37.641,0.398,37.6305,0.404
39.192,0.382,39.5407,0.375,39.7246,0.376,39.417,0.374,39.4433,0.38
41.8385,0.358,42.1865,0.351,42.336,0.352,41.107,0.35,41.306,0.356
43.666,0.334,43.952,0.327,44.0863,0.328,43.764,0.326,43.8556,0.332
45.385,0.31,45.626,0.304,45.9393,0.304,45.7606,0.302,45.6835,0.308
47.987,0.286,47.3255,0.28,47.7667,0.281,47.6584,0.279,47.479,0.284
49.698,0.263,50.03,0.257,49.604,0.258,49.3795,0.255,49.225,0.261
51.422,0.239,51.7284,0.233,51.453,0.234,51.1205,0.232,50.982,0.238
53.1214,0.217,53.432,0.211,53.3266,0.212,52.8906,0.221,53.6116,0.215
54.9894,0.195,55.2197,0.189,55.9115,0.19,55.7385,0.188,55.374,0.193
57.667,0.173,58.042,0.168,57.6717,0.169,56.6533,0.177,57.2117,0.172
59.51,0.153,59.8627,0.148,59.495,0.149,59.3517,0.157,58.999,0.152
61.328,0.134,61.681,0.129,61.4094,0.13,61.1937,0.137,61.619,0.132
63.1956,0.115,63.492,0.111,63.928,0.112,62.321,0.119,63.5337,0.114
64.9225,0.098,65.299,0.094,65.673,0.095,64.3985,0.101,65.3335,0.097
67.501,0.082,67.0703,0.078,67.5725,0.079,66.9635,0.085,68.033,0.081
69.308,0.067,69.84,0.064,69.396,0.065,68.7706,0.07,69.9776,0.066
71.1617,0.054,71.606,0.051,71.269,0.052,70.573,0.056,71.999,0.053
72.9386,0.042,73.6783,0.039,73.9565,0.04,72.3276,0.044,73.7653,0.041
75.7876,0.032,75.773,0.029,74.8567,0.03,74.0946,0.034,75.605,0.031
77.796,0.023,77.5046,0.021,76.8695,0.021,75.918,0.029,77.417,0.022
79.519,0.012,79.346,0.014,79.7253,0.014,78.6876,0.017,79.1163,0.015
81.323,0.01,82.029,0.008,81.6137,0.009,79.6023,0.013,81.7574,0.009
83.38,0.005,82.995,0.005,83.3494,0.005,81.61,0.008,83.5953,0.005
85.244,0.003,85.782,0.002,85.316,0.002,84.198,0.004,85.5045,0.003
87.097,0.002,87.7976,0.002,87.122,0.002,86.0723,0.002,87.332,0.002
88.8067,0.002,89.6355,0.002,89.7183,0.002,87.9404,0.002,89.15,0.002
90.6966,0.004,91.397,0.005,91.536,0.005,89.8147,0.003,90.9503,0.004
93.471,0.008,94.0446,0.009,93.3414,0.009,92.4516,0.005,93.6076,0.008
95.186,0.013,94.944,0.014,95.1516,0.011,94.1467,0.009,95.344,0.013
97.039,0.02,97.755,0.021,96.844,0.021,95.902,0.015,97.202,0.02
98.8195,0.028,99.454,0.03,99.3873,0.025,97.765,0.022,98.973,0.029
101.4517,0.038,101.9977,0.04,101.206,0.034,99.5264,0.031,101.005,0.038
103.15,0.049,103.821,0.051,103.032,0.045,102.192,0.041,103.601,0.05
104.9623,0.061,105.812,0.064,104.845,0.063,104.1335,0.052,105.428,0.062
106.797,0.075,107.6357,0.078,106.638,0.07,105.879,0.065,107.24,0.076
108.685,0.09,109.349,0.094,109.247,0.085,107.754,0.079,109.8153,0.091
110.5336,0.107,111.1515,0.11,110.164,0.101,109.5585,0.095,110.717,0.108
112.402,0.124,113.7306,0.128,113.0055,0.118,111.274,0.111,113.6024,0.125
114.2755,0.133,115.7325,0.147,114.7245,0.136,113.962,0.129,115.4314,0.144
116.281,0.162,117.407,0.166,116.4233,0.155,115.928,0.148,117.248,0.163
119.072,0.182,119.244,0.186,119.0456,0.174,117.944,0.167,118.927,0.183
120.8877,0.203,121.87,0.207,120.756,0.195,119.7776,0.187,120.8,0.204
122.582,0.225,123.545,0.229,122.485,0.216,121.5477,0.208,122.628,0.226
125.239,0.247,125.4385,0.251,125.244,0.239,123.3923,0.23,125.3057,0.248
126.084,0.258,127.158,0.274,126.1553,0.261,125.9714,0.252,127.097,0.271
128.72,0.281,128.92,0.297,128.07,0.284,127.793,0.275,128.975,0.295
130.4556,0.304,131.54,0.32,130.8494,0.307,129.633,0.298,130.712,0.306
132.1465,0.327,133.553,0.344,132.7607,0.33,131.9705,0.321,133.3316,0.341
133.9015,0.351,135.3966,0.367,134.5814,0.353,133.804,0.345,135.0934,0.364
136.7265,0.374,137.3605,0.39,136.4973,0.376,135.642,0.368,137.0896,0.387
138.5243,0.397,139.214,0.401,139.0046,0.399,137.3767,0.391,138.866,0.399
141.2263,0.431,141.0164,0.424,140.762,0.422,140.08,0.414,140.8263,0.433
142.148,0.442,142.8845,0.457,142.602,0.444,142.04,0.437,142.655,0.444
144.988,0.475,144.7286,0.468,144.359,0.466,143.816,0.458,145.2854,0.477
146.8227,0.486,147.2983,0.489,147.0055,0.487,145.777,0.48,147.1644,0.498
148.578,0.506,148.9877,0.52,148.721,0.508,147.784,0.501,148.8377,0.518
150.4005,0.526,150.9834,0.529,151.2287,0.527,149.6123,0.521,150.675,0.537
152.1414,0.545,153.5385,0.548,152.7613,0.546,151.3986,0.54,152.5535,0.546
153.8865,0.563,155.308,0.565,154.5054,0.564,153.2,0.558,154.403,0.565
155.607,0.579,157.3205,0.59,156.2416,0.58,155.7556,0.575,157.0444,0.589
157.4653,0.595,159.1385,0.597,158.1206,0.595,157.634,0.59,158.872,0.597
160.2236,0.609,160.817,0.611,159.9095,0.61,159.4146,0.605,160.5487,0.611
162.04,0.622,163.33,0.624,161.785,0.622,162.031,0.618,163.259,0.629
164.549,0.634,165.0146,0.635,163.546,0.634,163.8623,0.63,165.1746,0.64
166.3977,0.644,166.699,0.645,166.249,0.644,165.7783,0.64,167.012,0.65
168.1637,0.653,168.532,0.653,168.322,0.652,167.5943,0.65,168.695,0.657
170.093,0.66,171.0345,0.659,170.1656,0.658,169.417,0.657,170.59,0.663
171.9154,0.665,171.9373,0.665,171.926,0.663,171.1475,0.663,173.3235,0.668
174.5425,0.669,174.639,0.668,173.671,0.667,173.7475,0.667,174.2247,0.67
176.3855,0.672,176.5736,0.67,176.308,0.669,175.4525,0.669,176.907,0.672
178.1306,0.672,178.3963,0.67,178.116,0.669,177.127,0.67,178.652,0.672
180.1326,0.671,180.189,0.668,179.9273,0.668,179.0105,0.67,180.484,0.671
181.816,0.668,182.0564,0.666,181.774,0.666,181.022,0.668,182.348,0.668
183.536,0.664,183.931,0.661,183.648,0.662,182.8357,0.665,184.0203,0.663
186.3926,0.658,186.545,0.655,185.4455,0.657,184.586,0.66,186.6593,0.657
188.2664,0.65,188.281,0.647,188.247,0.65,186.4447,0.654,188.4805,0.65
189.9604,0.641,190.175,0.637,189.828,0.642,188.983,0.646,190.217,0.641
192.605,0.631,191.941,0.627,191.86,0.632,190.8153,0.637,193.154,0.625
194.358,0.619,194.7915,0.615,193.755,0.621,192.5515,0.626,194.9666,0.612
196.355,0.606,196.5533,0.601,195.561,0.608,195.3406,0.614,196.907,0.605
198.173,0.591,198.5714,0.586,197.368,0.594,197.2045,0.601,198.7454,0.591
200.1264,0.575,200.285,0.57,199.083,0.578,198.8376,0.586,200.5655,0.575
201.8064,0.558,202.042,0.553,200.864,0.562,200.6343,0.569,202.277,0.557
203.6395,0.54,203.8787,0.535,203.4296,0.544,202.4523,0.552,204.1006,0.539
206.1317,0.521,206.5557,0.515,205.245,0.525,204.2365,0.534,206.8943,0.52
207.842,0.501,207.662,0.495,207.1246,0.516,207.002,0.514,208.722,0.5
209.664,0.481,209.7146,0.485,208.9577,0.486,208.8254,0.494,210.528,0.479
211.456,0.459,211.4707,0.463,210.6976,0.464,210.4575,0.473,212.377,0.458
214.0816,0.436,214.296,0.43,212.5615,0.442,213.095,0.452,214.236,0.435
215.7455,0.414,216.119,0.419,214.338,0.431,214.84,0.429,216.0106,0.413
217.472,0.391,217.9313,0.396,216.3695,0.408,216.6566,0.406,217.7776,0.389
219.303,0.367,219.784,0.372,218.955,0.385,218.459,0.383,220.403,0.366
221.908,0.343,221.561,0.349,220.9475,0.361,220.239,0.36,222.2467,0.342
223.896,0.32,223.399,0.325,222.7785,0.338,222.8254,0.336,224.012,0.318
225.7234,0.308,225.198,0.302,224.566,0.314,224.5763,0.312,226.393,0.295
227.5596,0.273,227.048,0.279,226.321,0.291,226.5777,0.289,228.251,0.271
229.296,0.261,229.778,0.255,228.9474,0.268,228.58,0.266,229.9616,0.249
231.8974,0.227,230.7436,0.233,230.7654,0.245,230.6404,0.243,231.762,0.226
233.6524,0.206,233.555,0.211,232.6856,0.223,232.3824,0.221,233.488,0.204
235.5356,0.184,235.2897,0.189,234.5333,0.201,234.251,0.199,236.134,0.183
237.3224,0.163,236.969,0.168,236.36,0.18,236.0737,0.178,237.8944,0.162
239.319,0.153,238.8534,0.148,238.081,0.159,238.7466,0.157,239.7437,0.142
241.8894,0.125,241.5357,0.129,240.692,0.14,240.6506,0.138,242.3645,0.124
243.6496,0.107,243.3016,0.112,242.5447,0.121,242.4723,0.12,244.126,0.106
245.499,0.099,245.199,0.095,244.3206,0.104,244.509,0.102,246.071,0.09
247.2737,0.083,247.7957,0.079,246.906,0.088,246.3376,0.086,247.76,0.074
249.8544,0.068,249.644,0.065,247.8066,0.073,247.9957,0.078,250.365,0.06
251.7225,0.055,251.425,0.052,249.579,0.059,249.8086,0.064,252.1366,0.048
253.5546,0.043,254.0364,0.04,252.449,0.046,252.3986,0.045,253.971,0.037
255.28,0.032,256.0524,0.03,254.1745,0.035,254.2365,0.039,255.756,0.031
257.0266,0.023,258.061,0.021,256.023,0.026,256.0123,0.025,257.5173,0.023
259.643,0.016,259.897,0.014,258.6847,0.018,258.643,0.017,259.482,0.015
261.4436,0.01,261.567,0.009,260.486,0.011,260.3944,0.011,261.2487,0.009
263.235,0.005,263.363,0.005,262.2994,0.007,262.227,0.006,262.8464,0.005
265.006,0.003,265.9944,0.002,264.085,0.003,264.035,0.003,265.621,0.003
266.8597,0.002,267.755,0.002,265.913,0.002,266.6393,0.002,266.527,0.002
269.6086,0.002,269.588,0.002,268.416,0.002,268.3907,0.002,269.3773,0.002
271.4767,0.004,271.3636,0.005,270.172,0.003,270.2426,0.004,271.2563,0.004
273.3864,0.008,273.9495,0.009,271.9023,0.006,272.7983,0.007,273.0895,0.008
275.219,0.013,275.757,0.015,274.662,0.011,274.5387,0.012,274.9674,0.014
276.981,0.02,277.5065,0.022,276.669,0.018,276.3604,0.018,276.7954,0.021
278.8645,0.028,279.2526,0.026,278.41,0.025,278.234,0.027,279.2943,0.029
281.608,0.038,281.2337,0.041,280.2627,0.035,279.9897,0.031,281.1155,0.039
283.62,0.05,283.1544,0.052,282.017,0.046,282.6157,0.047,282.877,0.051
285.4475,0.063,284.9604,0.066,283.845,0.052,283.697,0.053,285.339,0.064
287.369,0.077,286.823,0.08,285.5496,0.065,286.3065,0.067,287.116,0.078
289.256,0.092,289.465,0.096,288.166,0.087,288.1303,0.081,288.9586,0.094
291.1,0.109,291.206,0.113,289.84,0.103,290.0036,0.097,290.806,0.102
292.9833,0.127,293.0797,0.131,292.409,0.121,291.7487,0.114,292.491,0.12
295.63,0.146,294.8566,0.151,293.322,0.13,293.459,0.133,295.2035,0.138
297.6144,0.166,297.4565,0.17,296.157,0.159,296.13,0.152,297.112,0.158
299.623,0.187,299.2886,0.191,298.158,0.18,298.116,0.172,298.014,0.178
301.2744,0.208,301.1473,0.213,300.165,0.201,300.129,0.193,299.8877,0.199
303.8775,0.242,302.9904,0.235,301.828,0.212,301.2036,0.215,302.7226,0.221
305.596,0.265,304.838,0.258,303.647,0.245,304.132,0.237,304.384,0.244
307.388,0.289,306.616,0.27,305.5336,0.257,305.91,0.26,306.107,0.267
309.2665,0.313,309.2,0.294,307.587,0.28,307.7303,0.284,308.739,0.291
312.0306,0.337,311.027,0.33,309.282,0.304,309.5025,0.307,310.5517,0.315
313.8684,0.361,312.885,0.342,311.9134,0.328,312.1176,0.331,312.3327,0.339
315.6854,0.385,314.5847,0.366,313.746,0.364,313.035,0.355,314.104,0.363
317.365,0.408,316.3663,0.389,315.7735,0.388,315.614,0.379,315.86,0.387
320.007,0.432,319.197,0.413,317.5374,0.411,317.4467,0.403,318.6855,0.41
321.8705,0.455,321.0094,0.436,320.15,0.435,319.3314,0.426,319.597,0.434
323.698,0.477,322.704,0.459,321.977,0.446,321.1735,0.45,322.1913,0.457
325.4373,0.499,325.4227,0.481,323.8964,0.469,323.0415,0.472,324.204,0.48
328.0383,0.52,327.188,0.503,325.7707,0.491,325.0033,0.494,325.971,0.501
329.805,0.53,328.094,0.524,327.66,0.512,326.8203,0.516,327.9607,0.523
330.747,0.55,330.9294,0.544,329.3854,0.533,329.667,0.536,329.718,0.543
332.713,0.569,332.696,0.563,332.088,0.552,331.4274,0.555,331.5233,0.562
335.307,0.586,334.591,0.58,333.966,0.571,333.1533,0.574,333.398,0.571
337.299,0.603,336.3054,0.597,335.7835,0.588,335.6756,0.591,336.019,0.597
339.3685,0.618,339.1263,0.612,337.6567,0.604,337.4577,0.607,337.821,0.613
341.189,0.632,340.923,0.626,339.367,0.619,339.295,0.622,339.632,0.627
343.7027,0.644,343.4375,0.639,341.143,0.632,341.885,0.635,341.446,0.64
345.531,0.655,344.3424,0.651,343.79,0.645,343.673,0.647,344.0303,0.652
347.3533,0.664,347.2705,0.661,345.7244,0.655,345.654,0.658,345.726,0.662
349.017,0.673,349.1646,0.668,347.4763,0.664,347.486,0.667,347.5414,0.671
350.84,0.679,350.926,0.676,349.243,0.672,349.267,0.674,349.41,0.674
352.59,0.683,352.76,0.68,351.233,0.678,351.0384,0.68,352.0214,0.68
355.1626,0.686,354.485,0.684,353.004,0.682,353.66,0.684,353.833,0.685
356.659,0.687,356.028,0.685,355.4903,0.685,355.366,0.686,355.69,0.687
357.849,0.687,357.899,0.685,356.9223,0.686,356.8806,0.687,357.152,0.688
359.186,0.686,358.9456,0.685,358.144,0.685,358.1345,0.687,358.2783,0.688
359.736,0.686,359.542,0.685,359.0284,0.685,359.0404,0.686,359.1326,0.687
359.982,0.685,359.8963,0.684,359.6343,0.684,359.6473,0.685,359.888,0.686